Date,Close
2020-01-02 00:00:00-05:00,4.26545152025264
2020-01-03 00:00:00-05:00,4.2755031259376235
2020-01-06 00:00:00-05:00,4.315294037575376
2020-01-07 00:00:00-05:00,4.324859155276986
2020-01-08 00:00:00-05:00,4.302778093797538
2020-01-09 00:00:00-05:00,4.313143259439398
2020-01-10 00:00:00-05:00,4.290451289159363
2020-01-13 00:00:00-05:00,4.281719670113589
2020-01-14 00:00:00-05:00,4.291146790987455
2020-01-15 00:00:00-05:00,4.295884769242314
2020-01-16 00:00:00-05:00,4.302433237119755
2020-01-17 00:00:00-05:00,4.282586980077179
2020-01-21 00:00:00-05:00,4.26758823351815
2020-01-22 00:00:00-05:00,4.256219738768862
2020-01-23 00:00:00-05:00,4.24093927991146
2020-01-24 00:00:00-05:00,4.216445316594805
2020-01-27 00:00:00-05:00,4.175414480265383
2020-01-28 00:00:00-05:00,4.180749854497134
2020-01-29 00:00:00-05:00,4.155648358410205
2020-01-30 00:00:00-05:00,4.164657684705274
2020-01-31 00:00:00-05:00,4.125521128742409
2020-02-03 00:00:00-05:00,4.104173117502664
2020-02-04 00:00:00-05:00,4.135212026899978
2020-02-05 00:00:00-05:00,4.180749854497134
2020-02-06 00:00:00-05:00,4.165316691810903
2020-02-07 00:00:00-05:00,4.145079057169257
2020-02-10 00:00:00-05:00,4.136298179399442
2020-02-11 00:00:00-05:00,4.150979649888684
2020-02-12 00:00:00-05:00,4.158837305944714
2020-02-13 00:00:00-05:00,4.162809509822295
2020-02-14 00:00:00-05:00,4.152716305937744
2020-02-18 00:00:00-05:00,4.147497323882057
2020-02-19 00:00:00-05:00,4.183730574620917
2020-02-20 00:00:00-05:00,4.16689715415459
2020-02-21 00:00:00-05:00,4.143194246007699
2020-02-24 00:00:00-05:00,4.0835042206858905
2020-02-25 00:00:00-05:00,4.0408386397212785
2020-02-26 00:00:00-05:00,3.982599664379054
2020-02-27 00:00:00-05:00,3.9306400553151897
2020-02-28 00:00:00-05:00,3.9835486165276173
2020-03-02 00:00:00-05:00,3.977205311715591
2020-03-03 00:00:00-05:00,3.9703414314151253
2020-03-04 00:00:00-05:00,3.9964277815489884
2020-03-05 00:00:00-05:00,3.961330671923868
2020-03-06 00:00:00-05:00,3.849068515508766
2020-03-09 00:00:00-04:00,3.463299577745627
2020-03-10 00:00:00-04:00,3.5643953636936527
2020-03-11 00:00:00-04:00,3.4962608472785273
2020-03-12 00:00:00-04:00,3.317535519063095
2020-03-13 00:00:00-04:00,3.3859125906558103
2020-03-16 00:00:00-04:00,3.2735032802527675
2020-03-17 00:00:00-04:00,3.2667278602140204
2020-03-18 00:00:00-04:00,3.229460478397804
2020-03-19 00:00:00-04:00,3.3394475304167055
2020-03-20 00:00:00-04:00,3.3884957490000724
2020-03-23 00:00:00-04:00,3.3784134929195684
2020-03-24 00:00:00-04:00,3.5201623312493915
2020-03-25 00:00:00-04:00,3.517394620133477
2020-03-26 00:00:00-04:00,3.513355155213646
2020-03-27 00:00:00-04:00,3.4198144565114377
2020-03-30 00:00:00-04:00,3.3910719949246526
2020-03-31 00:00:00-04:00,3.417589470170511
2020-04-01 00:00:00-04:00,3.3801489721401556
2020-04-02 00:00:00-04:00,3.4817450277507995
2020-04-03 00:00:00-04:00,3.5224209437368827
2020-04-06 00:00:00-04:00,3.5108224347341515
2020-04-07 00:00:00-04:00,3.5578839060161633
2020-04-08 00:00:00-04:00,3.64938183189734
2020-04-09 00:00:00-04:00,3.6389497869306817
2020-04-13 00:00:00-04:00,3.60421711152474
2020-04-14 00:00:00-04:00,3.5794260930461013
2020-04-15 00:00:00-04:00,3.5313405327136476
2020-04-16 00:00:00-04:00,3.4430750931311773
2020-04-17 00:00:00-04:00,3.579067785465063
2020-04-20 00:00:00-04:00,3.562924810719706
2020-04-21 00:00:00-04:00,3.546516848627121
2020-04-22 00:00:00-04:00,3.60989752775963
2020-04-23 00:00:00-04:00,3.634392379669093
2020-04-24 00:00:00-04:00,3.6147522615700503
2020-04-27 00:00:00-04:00,3.6416027886500992
2020-04-28 00:00:00-04:00,3.651432968699668
2020-04-29 00:00:00-04:00,3.7105656643784486
2020-04-30 00:00:00-04:00,3.7061550950366255
2020-05-01 00:00:00-04:00,3.64227575686853
2020-05-04 00:00:00-04:00,3.689815333486034
2020-05-05 00:00:00-04:00,3.6749428771897032
2020-05-06 00:00:00-04:00,3.6703719929768757
2020-05-07 00:00:00-04:00,3.7228535618782677
2020-05-08 00:00:00-04:00,3.78582540732177
2020-05-11 00:00:00-04:00,3.754032667804827
2020-05-12 00:00:00-04:00,3.751622353686825
2020-05-13 00:00:00-04:00,3.7205740746523674
2020-05-14 00:00:00-04:00,3.707207081126087
2020-05-15 00:00:00-04:00,3.709727005431043
2020-05-18 00:00:00-04:00,3.804884617702976
2020-05-19 00:00:00-04:00,3.7703515338476383
2020-05-20 00:00:00-04:00,3.8088812822609652
2020-05-21 00:00:00-04:00,3.8025937752251844
2020-05-22 00:00:00-04:00,3.8018288797909348
2020-05-26 00:00:00-04:00,3.7856309837291096
2020-05-27 00:00:00-04:00,3.81039958111839
2020-05-28 00:00:00-04:00,3.7895116016826598
2020-05-29 00:00:00-04:00,3.776452268431204
2020-06-01 00:00:00-04:00,3.7927982247035854
2020-06-02 00:00:00-04:00,3.8490875281559953
2020-06-03 00:00:00-04:00,3.8592529356231795
2020-06-04 00:00:00-04:00,3.8552717119289923
2020-06-05 00:00:00-04:00,3.9279926785603365
2020-06-08 00:00:00-04:00,3.9741220825547643
2020-06-09 00:00:00-04:00,3.930686933301236
2020-06-10 00:00:00-04:00,3.8639374993924687
2020-06-11 00:00:00-04:00,3.7799774991199873
2020-06-12 00:00:00-04:00,3.8073605052425386
2020-06-15 00:00:00-04:00,3.800488924674985
2020-06-16 00:00:00-04:00,3.845248832786184
2020-06-17 00:00:00-04:00,3.805647095417155
2020-06-18 00:00:00-04:00,3.814185273396472
2020-06-19 00:00:00-04:00,3.8022114432157923
2020-06-22 00:00:00-04:00,3.8045029908117995
2020-06-23 00:00:00-04:00,3.805266014121114
2020-06-24 00:00:00-04:00,3.7360143052653805
2020-06-25 00:00:00-04:00,3.7717324580950047
2020-06-26 00:00:00-04:00,3.732125236181448
2020-06-29 00:00:00-04:00,3.750213358021753
2020-06-30 00:00:00-04:00,3.7703515338476383
2020-07-01 00:00:00-04:00,3.7544338672634656
2020-07-02 00:00:00-04:00,3.767584215745108
2020-07-06 00:00:00-04:00,3.7654045534179974
2020-07-07 00:00:00-04:00,3.7187049903361324
2020-07-08 00:00:00-04:00,3.704680696884906
2020-07-09 00:00:00-04:00,3.6371020779588275
2020-07-10 00:00:00-04:00,3.66072702921263
2020-07-13 00:00:00-04:00,3.6507657406202374
2020-07-14 00:00:00-04:00,3.7013024450626624
2020-07-15 00:00:00-04:00,3.705102282605288
2020-07-16 00:00:00-04:00,3.720591813796589
2020-07-17 00:00:00-04:00,3.7066938269343974
2020-07-20 00:00:00-04:00,3.7180792400148994
2020-07-21 00:00:00-04:00,3.773535591530331
2020-07-22 00:00:00-04:00,3.7689635063823674
2020-07-23 00:00:00-04:00,3.7419019568661174
2020-07-24 00:00:00-04:00,3.745783983519504
2020-07-27 00:00:00-04:00,3.735947890145199
2020-07-28 00:00:00-04:00,3.709023737636196
2020-07-29 00:00:00-04:00,3.7347115820075696
2020-07-30 00:00:00-04:00,3.69431898253596
2020-07-31 00:00:00-04:00,3.7000987260556046
2020-08-03 00:00:00-04:00,3.689800374693458
2020-08-04 00:00:00-04:00,3.7338864658416573
2020-08-05 00:00:00-04:00,3.7800593355717993
2020-08-06 00:00:00-04:00,3.782814096820132
2020-08-07 00:00:00-04:00,3.7410828452546188
2020-08-10 00:00:00-04:00,3.7743286453527496
2020-08-11 00:00:00-04:00,3.7535028486638176
2020-08-12 00:00:00-04:00,3.7468031265299486
2020-08-13 00:00:00-04:00,3.7121918690044966
2020-08-14 00:00:00-04:00,3.723723656244363
2020-08-17 00:00:00-04:00,3.6934599358313376
2020-08-18 00:00:00-04:00,3.6893689506849827
2020-08-19 00:00:00-04:00,3.6732745679111622
2020-08-20 00:00:00-04:00,3.6396074109734324
2020-08-21 00:00:00-04:00,3.623376621334862
2020-08-24 00:00:00-04:00,3.644809339855911
2020-08-25 00:00:00-04:00,3.6459367043601407
2020-08-26 00:00:00-04:00,3.6203761745187877
2020-08-27 00:00:00-04:00,3.6586985234999143
2020-08-28 00:00:00-04:00,3.686344046638149
2020-08-31 00:00:00-04:00,3.6673373196042554
2020-09-01 00:00:00-04:00,3.6644660050150537
2020-09-02 00:00:00-04:00,3.6304959630858686
2020-09-03 00:00:00-04:00,3.6173663906098086
2020-09-04 00:00:00-04:00,3.617598179190573
2020-09-08 00:00:00-04:00,3.5625648687803935
2020-09-09 00:00:00-04:00,3.5874784802341138
2020-09-10 00:00:00-04:00,3.490734086426398
2020-09-11 00:00:00-04:00,3.51799070607238
2020-09-14 00:00:00-04:00,3.5210585381045245
2020-09-15 00:00:00-04:00,3.5061408639625253
2020-09-16 00:00:00-04:00,3.56329943681448
2020-09-17 00:00:00-04:00,3.571343091655943
2020-09-18 00:00:00-04:00,3.5596214058748696
2020-09-21 00:00:00-04:00,3.5118256374812855
2020-09-22 00:00:00-04:00,3.502506350658238
2020-09-23 00:00:00-04:00,3.4471669323896377
2020-09-24 00:00:00-04:00,3.4545611864228567
2020-09-25 00:00:00-04:00,3.4761545716224598
2020-09-28 00:00:00-04:00,3.475887325405515
2020-09-29 00:00:00-04:00,3.4419304440054055
2020-09-30 00:00:00-04:00,3.43499863355904
2020-10-01 00:00:00-04:00,3.404487733792501
2020-10-02 00:00:00-04:00,3.4030525272872465
2020-10-05 00:00:00-04:00,3.449363496773667
2020-10-06 00:00:00-04:00,3.436388808149905
2020-10-07 00:00:00-04:00,3.4561969018428678
2020-10-08 00:00:00-04:00,3.4820117688657026
2020-10-09 00:00:00-04:00,3.47908722332639
2020-10-12 00:00:00-04:00,3.496244890844679
2020-10-13 00:00:00-04:00,3.5074356934017685
2020-10-14 00:00:00-04:00,3.480683458145712
2020-10-15 00:00:00-04:00,3.5028551429855854
2020-10-16 00:00:00-04:00,3.4853712537855794
2020-10-19 00:00:00-04:00,3.4519486768794216
2020-10-20 00:00:00-04:00,3.454432552483766
2020-10-21 00:00:00-04:00,3.4219364898907845
2020-10-22 00:00:00-04:00,3.47219000199237
2020-10-23 00:00:00-04:00,3.4877735235529155
2020-10-26 00:00:00-04:00,3.416512122169419
2020-10-27 00:00:00-04:00,3.406441278455287
2020-10-28 00:00:00-04:00,3.3447134929071054
2020-10-29 00:00:00-04:00,3.3886437729212404
2020-10-30 00:00:00-04:00,3.396560373227787
2020-11-02 00:00:00-05:00,3.422790328254614
2020-11-03 00:00:00-05:00,3.419085355827197
2020-11-04 00:00:00-05:00,3.4477952661080113
2020-11-05 00:00:00-05:00,3.435511306084524
2020-11-06 00:00:00-05:00,3.406441278455287
2020-11-09 00:00:00-05:00,3.5597656273080847
2020-11-10 00:00:00-05:00,3.6053489572380153
2020-11-11 00:00:00-05:00,3.5986903497767817
2020-11-12 00:00:00-05:00,3.564221020808718
2020-11-13 00:00:00-05:00,3.616661784056673
2020-11-16 00:00:00-05:00,3.677575802386935
2020-11-17 00:00:00-05:00,3.684607417752719
2020-11-18 00:00:00-05:00,3.668271567227941
2020-11-19 00:00:00-05:00,3.679998717628546
2020-11-20 00:00:00-05:00,3.678457752112041
2020-11-23 00:00:00-05:00,3.782760095186179
2020-11-24 00:00:00-05:00,3.8598976806859966
2020-11-25 00:00:00-05:00,3.8334578585778876
2020-11-27 00:00:00-05:00,3.803387598522165
2020-11-30 00:00:00-05:00,3.7107570485367263
2020-12-01 00:00:00-05:00,3.703263158877765
2020-12-02 00:00:00-05:00,3.7306097274303434
2020-12-03 00:00:00-05:00,3.7379022877469326
2020-12-04 00:00:00-05:00,3.8334578585778876
2020-12-07 00:00:00-05:00,3.8061058977272237
2020-12-08 00:00:00-05:00,3.81729002107502
2020-12-09 00:00:00-05:00,3.8327027565466856
2020-12-10 00:00:00-05:00,3.864663709473379
2020-12-11 00:00:00-05:00,3.8447148646721554
2020-12-14 00:00:00-05:00,3.815946953194757
2020-12-15 00:00:00-05:00,3.8364721663888854
2020-12-16 00:00:00-05:00,3.827781310056588
2020-12-17 00:00:00-05:00,3.81729002107502
2020-12-18 00:00:00-05:00,3.8099767107702514
2020-12-21 00:00:00-05:00,3.7767877171034963
2020-12-22 00:00:00-05:00,3.7519201217939413
2020-12-23 00:00:00-05:00,3.7767877171034963
2020-12-24 00:00:00-05:00,3.767156600053119
2020-12-28 00:00:00-05:00,3.7537608219942387
2020-12-29 00:00:00-05:00,3.7482287053162735
2020-12-30 00:00:00-05:00,3.7863265273237556
2020-12-31 00:00:00-05:00,3.772585446622692
2021-01-04 00:00:00-05:00,3.7723850978713376
2021-01-05 00:00:00-05:00,3.850667239468354
2021-01-06 00:00:00-05:00,3.8715891604877326
2021-01-07 00:00:00-05:00,3.9342417532053817
2021-01-08 00:00:00-05:00,3.9384974471101604
2021-01-11 00:00:00-05:00,3.9509892752496762
2021-01-12 00:00:00-05:00,3.997371904057452
2021-01-13 00:00:00-05:00,3.965313164159875
2021-01-14 00:00:00-05:00,4.000384452057944
2021-01-15 00:00:00-05:00,3.9501392675584124
2021-01-19 00:00:00-05:00,3.9716992658124064
2021-01-20 00:00:00-05:00,3.9670589554557094
2021-01-21 00:00:00-05:00,3.87726496377018
2021-01-22 00:00:00-05:00,3.8741710267611587
2021-01-25 00:00:00-05:00,3.8803496728470863
2021-01-26 00:00:00-05:00,3.84888137602141
2021-01-27 00:00:00-05:00,3.8769016117262893
2021-01-28 00:00:00-05:00,3.8531720553920414
2021-01-29 00:00:00-05:00,3.800427509662851
2021-02-01 00:00:00-05:00,3.8076620341403116
2021-02-02 00:00:00-05:00,3.806297483791997
2021-02-03 00:00:00-05:00,3.8925930595321176
2021-02-04 00:00:00-05:00,3.9206497049485587
2021-02-05 00:00:00-05:00,3.9055721130864507
2021-02-08 00:00:00-05:00,3.9538491343085846
2021-02-09 00:00:00-05:00,3.9336155164793833
2021-02-10 00:00:00-05:00,3.96722502119343
2021-02-11 00:00:00-05:00,3.957713160499862
2021-02-12 00:00:00-05:00,3.9805882851038463
2021-02-16 00:00:00-05:00,4.0141072860607965
2021-02-17 00:00:00-05:00,4.021056257460969
2021-02-18 00:00:00-05:00,3.9731862430795477
2021-02-19 00:00:00-05:00,4.004713151046823
2021-02-22 00:00:00-05:00,4.060555340494583
2021-02-23 00:00:00-05:00,4.086686043112575
2021-02-24 00:00:00-05:00,4.151178486950838
2021-02-25 00:00:00-05:00,4.126275155381844
2021-02-26 00:00:00-05:00,4.036981637258345
2021-03-01 00:00:00-05:00,4.043465979963838
2021-03-02 00:00:00-05:00,4.035586623867283
2021-03-03 00:00:00-05:00,4.073929870211117
2021-03-04 00:00:00-05:00,4.138104558363098
2021-03-05 00:00:00-05:00,4.181258935232637
2021-03-08 00:00:00-05:00,4.181393100030455
2021-03-09 00:00:00-05:00,4.168167499541061
2021-03-10 00:00:00-05:00,4.188340351167969
2021-03-11 00:00:00-05:00,4.190999500792586
2021-03-12 00:00:00-05:00,4.1868745905530735
2021-03-15 00:00:00-04:00,4.178304850943054
2021-03-16 00:00:00-04:00,4.127124602144574
2021-03-17 00:00:00-04:00,4.162445617702315
2021-03-18 00:00:00-04:00,4.102042795518403
2021-03-19 00:00:00-04:00,4.119024024875276
2021-03-22 00:00:00-04:00,4.092270969620671
2021-03-23 00:00:00-04:00,4.112869210112564
2021-03-24 00:00:00-04:00,4.153524779620001
2021-03-25 00:00:00-04:00,4.1603935158734515
2021-03-26 00:00:00-04:00,4.185273515387632
2021-03-29 00:00:00-04:00,4.1685751239654385
2021-03-30 00:00:00-04:00,4.163401382944638
2021-03-31 00:00:00-04:00,4.153386882959755
2021-04-01 00:00:00-04:00,4.191397694820597
2021-04-05 00:00:00-04:00,4.143131759400369
2021-04-06 00:00:00-04:00,4.150210721619196
2021-04-07 00:00:00-04:00,4.163947243261495
2021-04-08 00:00:00-04:00,4.148688250591522
2021-04-09 00:00:00-04:00,4.142852944053715
2021-04-12 00:00:00-04:00,4.11930950091036
2021-04-13 00:00:00-04:00,4.123579791224509
2021-04-14 00:00:00-04:00,4.1750719203473245
2021-04-15 00:00:00-04:00,4.163102166371148
2021-04-16 00:00:00-04:00,4.130728990920083
2021-04-19 00:00:00-04:00,4.141730234714686
2021-04-20 00:00:00-04:00,4.102829038433915
2021-04-21 00:00:00-04:00,4.108500810448875
2021-04-22 00:00:00-04:00,4.099615780811349
2021-04-23 00:00:00-04:00,4.109949905500525
2021-04-26 00:00:00-04:00,4.1210377952592
2021-04-27 00:00:00-04:00,4.14718601278621
2021-04-28 00:00:00-04:00,4.192195682982401
2021-04-29 00:00:00-04:00,4.2047859897111595
2021-04-30 00:00:00-04:00,4.174162588331504
2021-05-03 00:00:00-04:00,4.205312913100394
2021-05-04 00:00:00-04:00,4.192595706228279
2021-05-05 00:00:00-04:00,4.215006118783215
2021-05-06 00:00:00-04:00,4.218519884031485
2021-05-07 00:00:00-04:00,4.295018829621676
2021-05-10 00:00:00-04:00,4.3123173994274415
2021-05-11 00:00:00-04:00,4.283399229525152
2021-05-12 00:00:00-04:00,4.273857847200058
2021-05-13 00:00:00-04:00,4.2517369433745245
2021-05-14 00:00:00-04:00,4.288983789520272
2021-05-17 00:00:00-04:00,4.318801236202053
2021-05-18 00:00:00-04:00,4.29345320290685
2021-05-19 00:00:00-04:00,4.263728315257756
2021-05-20 00:00:00-04:00,4.263479569065568
2021-05-21 00:00:00-04:00,4.2578754827902054
2021-05-24 00:00:00-04:00,4.258749256543375
2021-05-25 00:00:00-04:00,4.2403631185307935
2021-05-26 00:00:00-04:00,4.251988410124913
2021-05-27 00:00:00-04:00,4.261117425032531
2021-05-28 00:00:00-04:00,4.261241615748305
2021-06-01 00:00:00-04:00,4.312790205980628
2021-06-02 00:00:00-04:00,4.32079694402364
2021-06-03 00:00:00-04:00,4.338696054776063
2021-06-04 00:00:00-04:00,4.346155682000428
2021-06-07 00:00:00-04:00,4.341227130720007
2021-06-08 00:00:00-04:00,4.345354969435248
2021-06-09 00:00:00-04:00,4.327109646529505
2021-06-10 00:00:00-04:00,4.331296351546274
2021-06-11 00:00:00-04:00,4.322788575739486
2021-06-14 00:00:00-04:00,4.315977064436059
2021-06-15 00:00:00-04:00,4.324659501454035
2021-06-16 00:00:00-04:00,4.314207898198983
2021-06-17 00:00:00-04:00,4.274718197623912
2021-06-18 00:00:00-04:00,4.248338282187161
2021-06-21 00:00:00-04:00,4.317507746318847
2021-06-22 00:00:00-04:00,4.31703706374922
2021-06-23 00:00:00-04:00,4.325827168478636
2021-06-24 00:00:00-04:00,4.330367363547824
2021-06-25 00:00:00-04:00,4.348325761976449
2021-06-28 00:00:00-04:00,4.29345320290685
2021-06-29 00:00:00-04:00,4.285466885649403
2021-06-30 00:00:00-04:00,4.299101938652286
2021-07-01 00:00:00-04:00,4.329205391179218
2021-07-02 00:00:00-04:00,4.326643362028966
2021-07-06 00:00:00-04:00,4.302452031775133
2021-07-07 00:00:00-04:00,4.270533772367438
2021-07-08 00:00:00-04:00,4.255624938418376
2021-07-09 00:00:00-04:00,4.288862996978698
2021-07-12 00:00:00-04:00,4.297422622104537
2021-07-13 00:00:00-04:00,4.290556737323302
2021-07-14 00:00:00-04:00,4.252741997067598
2021-07-15 00:00:00-04:00,4.2261013894201565
2021-07-16 00:00:00-04:00,4.195719484812384
2021-07-19 00:00:00-04:00,4.146211899121625
2021-07-20 00:00:00-04:00,4.1625686717616865
2021-07-21 00:00:00-04:00,4.199500741819189
2021-07-22 00:00:00-04:00,4.192873898940871
2021-07-23 00:00:00-04:00,4.176595710654038
2021-07-26 00:00:00-04:00,4.1992310275475395
2021-07-27 00:00:00-04:00,4.179625367522046
2021-07-28 00:00:00-04:00,4.187431888314277
2021-07-29 00:00:00-04:00,4.193009740414196
2021-07-30 00:00:00-04:00,4.181410932918461
2021-08-02 00:00:00-04:00,4.1642456142600555
2021-08-03 00:00:00-04:00,4.192602621649565
2021-08-04 00:00:00-04:00,4.151882568817218
2021-08-05 00:00:00-04:00,4.151882568817218
2021-08-06 00:00:00-04:00,4.154564774284971
2021-08-09 00:00:00-04:00,4.1324699309489725
2021-08-10 00:00:00-04:00,4.123057094273042
2021-08-11 00:00:00-04:00,4.133622335260701
2021-08-12 00:00:00-04:00,4.1383620682114435
2021-08-13 00:00:00-04:00,4.112378973523487
2021-08-16 00:00:00-04:00,4.081313000117038
2021-08-17 00:00:00-04:00,4.082071359783771
2021-08-18 00:00:00-04:00,4.072781574449522
2021-08-19 00:00:00-04:00,4.055808744275975
2021-08-20 00:00:00-04:00,4.059071278420737
2021-08-23 00:00:00-04:00,4.107070704862993
2021-08-24 00:00:00-04:00,4.118974773102124
2021-08-25 00:00:00-04:00,4.123057094273042
2021-08-26 00:00:00-04:00,4.103961309521798
2021-08-27 00:00:00-04:00,4.136066908140304
2021-08-30 00:00:00-04:00,4.103367894982043
2021-08-31 00:00:00-04:00,4.105295001741344
2021-09-01 00:00:00-04:00,4.087965668555333
2021-09-02 00:00:00-04:00,4.117658964735238
2021-09-03 00:00:00-04:00,4.112231849424669
2021-09-07 00:00:00-04:00,4.107514232524922
2021-09-08 00:00:00-04:00,4.1002467571676355
2021-09-09 00:00:00-04:00,4.1027741280923715
2021-09-10 00:00:00-04:00,4.099651260085274
2021-09-13 00:00:00-04:00,4.142651414628237
2021-09-14 00:00:00-04:00,4.134485721999628
2021-09-15 00:00:00-04:00,4.21448416686061
2021-09-16 00:00:00-04:00,4.196530909485981
2021-09-17 00:00:00-04:00,4.2003089909467
2021-09-20 00:00:00-04:00,4.162988082057018
2021-09-21 00:00:00-04:00,4.172449640448025
2021-09-22 00:00:00-04:00,4.205011750446384
2021-09-23 00:00:00-04:00,4.23498692498355
2021-09-24 00:00:00-04:00,4.250861476300972
2021-09-27 00:00:00-04:00,4.297270770130338
2021-09-28 00:00:00-04:00,4.296292261514459
2021-09-29 00:00:00-04:00,4.306517717101568
2021-09-30 00:00:00-04:00,4.27826711555226
2021-10-01 00:00:00-04:00,4.3226161373797005
2021-10-04 00:00:00-04:00,4.351858973065708
2021-10-05 00:00:00-04:00,4.359928231781706
2021-10-06 00:00:00-04:00,4.3538246728909105
2021-10-07 00:00:00-04:00,4.344773786859334
2021-10-08 00:00:00-04:00,4.398552497138036
2021-10-11 00:00:00-04:00,4.394457066605838
2021-10-12 00:00:00-04:00,4.394013430749828
2021-10-13 00:00:00-04:00,4.397226256355112
2021-10-14 00:00:00-04:00,4.403572852833721
2021-10-15 00:00:00-04:00,4.393028419192369
2021-10-18 00:00:00-04:00,4.38956327956528
2021-10-19 00:00:00-04:00,4.399035847944492
2021-10-20 00:00:00-04:00,4.431124107227514
2021-10-21 00:00:00-04:00,4.407209920232292
2021-10-22 00:00:00-04:00,4.41923845212708
2021-10-25 00:00:00-04:00,4.441170147408093
2021-10-26 00:00:00-04:00,4.451326643844369
2021-10-27 00:00:00-04:00,4.430479231992152
2021-10-28 00:00:00-04:00,4.438721227425487
2021-10-29 00:00:00-04:00,4.424225854212361
2021-11-01 00:00:00-04:00,4.434983383544446
2021-11-02 00:00:00-04:00,4.428111975134988
2021-11-03 00:00:00-04:00,4.407759653000991
2021-11-04 00:00:00-04:00,4.407209920232292
2021-11-05 00:00:00-04:00,4.452589216716954
2021-11-08 00:00:00-05:00,4.472057755530859
2021-11-09 00:00:00-05:00,4.473294091128774
2021-11-10 00:00:00-05:00,4.443825045300514
2021-11-11 00:00:00-05:00,4.4504840718054695
2021-11-12 00:00:00-05:00,4.449641056637401
2021-11-15 00:00:00-05:00,4.432197401565672
2021-11-16 00:00:00-05:00,4.41815078296102
2021-11-17 00:00:00-05:00,4.398148118623357
2021-11-18 00:00:00-05:00,4.393028419192369
2021-11-19 00:00:00-05:00,4.348069176389321
2021-11-22 00:00:00-05:00,4.3600189986334605
2021-11-23 00:00:00-05:00,4.4166261848794015
2021-11-24 00:00:00-05:00,4.430586891493327
2021-11-26 00:00:00-05:00,4.368173801493454
2021-11-29 00:00:00-05:00,4.379208565471345
2021-11-30 00:00:00-05:00,4.363357893399675
2021-12-01 00:00:00-05:00,4.3442103913339505
2021-12-02 00:00:00-05:00,4.358287646866815
2021-12-03 00:00:00-05:00,4.351680957146526
2021-12-06 00:00:00-05:00,4.3698882323014985
2021-12-07 00:00:00-05:00,4.403462338557665
2021-12-08 00:00:00-05:00,4.398148118623357
2021-12-09 00:00:00-05:00,4.384737019995895
2021-12-10 00:00:00-05:00,4.393697612449127
2021-12-13 00:00:00-05:00,4.375127566488758
2021-12-14 00:00:00-05:00,4.366605876259218
2021-12-15 00:00:00-05:00,4.360844881084592
2021-12-16 00:00:00-05:00,4.376985606815786
2021-12-17 00:00:00-05:00,4.351248219797819
2021-12-20 00:00:00-05:00,4.346235846500793
2021-12-21 00:00:00-05:00,4.378840105558809
2021-12-22 00:00:00-05:00,4.388865076581039
2021-12-23 00:00:00-05:00,4.388406349286367
2021-12-27 00:00:00-05:00,4.428870318334448
2021-12-28 00:00:00-05:00,4.422682569264372
2021-12-29 00:00:00-05:00,4.418572899714481
2021-12-30 00:00:00-05:00,4.4110881248933635
