Date,Close
2020-01-02 00:00:00-05:00,4.823454906379769
2020-01-03 00:00:00-05:00,4.80883453304105
2020-01-06 00:00:00-05:00,4.804197318238658
2020-01-07 00:00:00-05:00,4.796342673036406
2020-01-08 00:00:00-05:00,4.798915852288666
2020-01-09 00:00:00-05:00,4.8008607387599325
2020-01-10 00:00:00-05:00,4.796420623318345
2020-01-13 00:00:00-05:00,4.805203964072914
2020-01-14 00:00:00-05:00,4.810683340069614
2020-01-15 00:00:00-05:00,4.816898118350791
2020-01-16 00:00:00-05:00,4.791097878319533
2020-01-17 00:00:00-05:00,4.799538625087875
2020-01-21 00:00:00-05:00,4.779096052559752
2020-01-22 00:00:00-05:00,4.7812386359952335
2020-01-23 00:00:00-05:00,4.78203080642332
2020-01-24 00:00:00-05:00,4.778460413574483
2020-01-27 00:00:00-05:00,4.755546728260696
2020-01-28 00:00:00-05:00,4.7642110586715845
2020-01-29 00:00:00-05:00,4.75928062539913
2020-01-30 00:00:00-05:00,4.756765811753239
2020-01-31 00:00:00-05:00,4.729845040695771
2020-02-03 00:00:00-05:00,4.7422840116804394
2020-02-04 00:00:00-05:00,4.752043517064772
2020-02-05 00:00:00-05:00,4.770880706542125
2020-02-06 00:00:00-05:00,4.766868214368704
2020-02-07 00:00:00-05:00,4.752696231694542
2020-02-10 00:00:00-05:00,4.738568579885253
2020-02-11 00:00:00-05:00,4.747298750274267
2020-02-12 00:00:00-05:00,4.750655148248683
2020-02-13 00:00:00-05:00,4.735005342871262
2020-02-14 00:00:00-05:00,4.732428520369641
2020-02-18 00:00:00-05:00,4.725580315227809
2020-02-19 00:00:00-05:00,4.7271714040621085
2020-02-20 00:00:00-05:00,4.730108012027519
2020-02-21 00:00:00-05:00,4.726330893046005
2020-02-24 00:00:00-05:00,4.69524094486178
2020-02-25 00:00:00-05:00,4.645074963118054
2020-02-26 00:00:00-05:00,4.6401369126560885
2020-02-27 00:00:00-05:00,4.58840444658254
2020-02-28 00:00:00-05:00,4.596672343616379
2020-03-02 00:00:00-05:00,4.6048722137423255
2020-03-03 00:00:00-05:00,4.59609786084095
2020-03-04 00:00:00-05:00,4.629724641169314
2020-03-05 00:00:00-05:00,4.579288974379875
2020-03-06 00:00:00-05:00,4.567529668979492
2020-03-09 00:00:00-04:00,4.526892696438477
2020-03-10 00:00:00-04:00,4.572740654901001
2020-03-11 00:00:00-04:00,4.522365590826497
2020-03-12 00:00:00-04:00,4.446661740473862
2020-03-13 00:00:00-04:00,4.493277712487331
2020-03-16 00:00:00-04:00,4.359792017298971
2020-03-17 00:00:00-04:00,4.362215655063158
2020-03-18 00:00:00-04:00,4.237326778696099
2020-03-19 00:00:00-04:00,4.286038534627565
2020-03-20 00:00:00-04:00,4.326484189018607
2020-03-23 00:00:00-04:00,4.231550489590507
2020-03-24 00:00:00-04:00,4.355292669539441
2020-03-25 00:00:00-04:00,4.398933270310995
2020-03-26 00:00:00-04:00,4.445103118106912
2020-03-27 00:00:00-04:00,4.390615343980239
2020-03-30 00:00:00-04:00,4.401380448152588
2020-03-31 00:00:00-04:00,4.37400716060807
2020-04-01 00:00:00-04:00,4.328614542557103
2020-04-02 00:00:00-04:00,4.339074029225866
2020-04-03 00:00:00-04:00,4.335350894605231
2020-04-06 00:00:00-04:00,4.4096100479298475
2020-04-07 00:00:00-04:00,4.459811664060515
2020-04-08 00:00:00-04:00,4.48431962986327
2020-04-09 00:00:00-04:00,4.524425944709905
2020-04-13 00:00:00-04:00,4.487848517350541
2020-04-14 00:00:00-04:00,4.478302766669317
2020-04-15 00:00:00-04:00,4.43074041115441
2020-04-16 00:00:00-04:00,4.435476025484205
2020-04-17 00:00:00-04:00,4.483890960173392
2020-04-20 00:00:00-04:00,4.45992168137534
2020-04-21 00:00:00-04:00,4.42541433519788
2020-04-22 00:00:00-04:00,4.448551176084167
2020-04-23 00:00:00-04:00,4.453534701812146
2020-04-24 00:00:00-04:00,4.477763709346379
2020-04-27 00:00:00-04:00,4.512312060306569
2020-04-28 00:00:00-04:00,4.464193631453248
2020-04-29 00:00:00-04:00,4.5110612040123685
2020-04-30 00:00:00-04:00,4.456953504924644
2020-05-01 00:00:00-04:00,4.425300363667078
2020-05-04 00:00:00-04:00,4.411916038738169
2020-05-05 00:00:00-04:00,4.4283642131109255
2020-05-06 00:00:00-04:00,4.434350496210422
2020-05-07 00:00:00-04:00,4.451765586009711
2020-05-08 00:00:00-04:00,4.475195084328308
2020-05-11 00:00:00-04:00,4.458089423454504
2020-05-12 00:00:00-04:00,4.426747239210961
2020-05-13 00:00:00-04:00,4.387293615903844
2020-05-14 00:00:00-04:00,4.40762236433481
2020-05-15 00:00:00-04:00,4.418612067528987
2020-05-18 00:00:00-04:00,4.473780575954864
2020-05-19 00:00:00-04:00,4.488586134479412
2020-05-20 00:00:00-04:00,4.517867850924977
2020-05-21 00:00:00-04:00,4.508447471856305
2020-05-22 00:00:00-04:00,4.519845424082365
2020-05-26 00:00:00-04:00,4.558794093973097
2020-05-27 00:00:00-04:00,4.582022091532598
2020-05-28 00:00:00-04:00,4.584851707584991
2020-05-29 00:00:00-04:00,4.575356122746157
2020-06-01 00:00:00-04:00,4.59193865543334
2020-06-02 00:00:00-04:00,4.631300779646205
2020-06-03 00:00:00-04:00,4.6692616200450265
2020-06-04 00:00:00-04:00,4.664234537907444
2020-06-05 00:00:00-04:00,4.68938351987089
2020-06-08 00:00:00-04:00,4.684545204423056
2020-06-09 00:00:00-04:00,4.666930637115496
2020-06-10 00:00:00-04:00,4.645338695549179
2020-06-11 00:00:00-04:00,4.554384238079001
2020-06-12 00:00:00-04:00,4.574962638200404
2020-06-15 00:00:00-04:00,4.590292760412968
2020-06-16 00:00:00-04:00,4.605295910506308
2020-06-17 00:00:00-04:00,4.606345337512139
2020-06-18 00:00:00-04:00,4.60204519108629
2020-06-19 00:00:00-04:00,4.595318888164341
2020-06-22 00:00:00-04:00,4.594836674736062
2020-06-23 00:00:00-04:00,4.595029603426154
2020-06-24 00:00:00-04:00,4.577419517526679
2020-06-25 00:00:00-04:00,4.586117298928753
2020-06-26 00:00:00-04:00,4.579968338077047
2020-06-29 00:00:00-04:00,4.597437730743591
2020-06-30 00:00:00-04:00,4.617628874314049
2020-07-01 00:00:00-04:00,4.6203594190852755
2020-07-02 00:00:00-04:00,4.645613642074838
2020-07-06 00:00:00-04:00,4.653012693776743
2020-07-07 00:00:00-04:00,4.639636405174395
2020-07-08 00:00:00-04:00,4.621487143098088
2020-07-09 00:00:00-04:00,4.60834583285981
2020-07-10 00:00:00-04:00,4.626826532914702
2020-07-13 00:00:00-04:00,4.64845197012663
2020-07-14 00:00:00-04:00,4.669619486913358
2020-07-15 00:00:00-04:00,4.7039329420431075
2020-07-16 00:00:00-04:00,4.700814408116403
2020-07-17 00:00:00-04:00,4.671050817947961
2020-07-20 00:00:00-04:00,4.648543439878297
2020-07-21 00:00:00-04:00,4.655557686204214
2020-07-22 00:00:00-04:00,4.6692616200450265
2020-07-23 00:00:00-04:00,4.6616212871260885
2020-07-24 00:00:00-04:00,4.659182345606811
2020-07-27 00:00:00-04:00,4.656192977942327
2020-07-28 00:00:00-04:00,4.641111122463484
2020-07-29 00:00:00-04:00,4.657824755111297
2020-07-30 00:00:00-04:00,4.637605277499467
2020-07-31 00:00:00-04:00,4.632509187212851
2020-08-03 00:00:00-04:00,4.6299978111387805
2020-08-04 00:00:00-04:00,4.6338087414247395
2020-08-05 00:00:00-04:00,4.6690824238625135
2020-08-06 00:00:00-04:00,4.667110290982147
2020-08-07 00:00:00-04:00,4.692132701869893
2020-08-10 00:00:00-04:00,4.7098276347280645
2020-08-11 00:00:00-04:00,4.753362401429251
2020-08-12 00:00:00-04:00,4.7541892479598875
2020-08-13 00:00:00-04:00,4.736006892091316
2020-08-14 00:00:00-04:00,4.737436721859046
2020-08-17 00:00:00-04:00,4.736932340941818
2020-08-18 00:00:00-04:00,4.734996431245145
2020-08-19 00:00:00-04:00,4.734575014982722
2020-08-20 00:00:00-04:00,4.731197747095168
2020-08-21 00:00:00-04:00,4.731113197674418
2020-08-24 00:00:00-04:00,4.754932786336469
2020-08-25 00:00:00-04:00,4.744471936829853
2020-08-26 00:00:00-04:00,4.745556283380877
2020-08-27 00:00:00-04:00,4.7525348706576285
2020-08-28 00:00:00-04:00,4.7634854606479875
2020-08-31 00:00:00-04:00,4.749300848914258
2020-09-01 00:00:00-04:00,4.7787628590585856
2020-09-02 00:00:00-04:00,4.7946045120593155
2020-09-03 00:00:00-04:00,4.768956950054697
2020-09-04 00:00:00-04:00,4.767489922674662
2020-09-08 00:00:00-04:00,4.7541892479598875
2020-09-09 00:00:00-04:00,4.7895113009169075
2020-09-10 00:00:00-04:00,4.79269769139771
2020-09-11 00:00:00-04:00,4.8034555592489125
2020-09-14 00:00:00-04:00,4.827629909795558
2020-09-15 00:00:00-04:00,4.825400317726513
2020-09-16 00:00:00-04:00,4.818603660788873
2020-09-17 00:00:00-04:00,4.8202298197436555
2020-09-18 00:00:00-04:00,4.792936045313676
2020-09-21 00:00:00-04:00,4.746639521627332
2020-09-22 00:00:00-04:00,4.752783254460792
2020-09-23 00:00:00-04:00,4.731874154092845
2020-09-24 00:00:00-04:00,4.737184496341893
2020-09-25 00:00:00-04:00,4.748054305909873
2020-09-28 00:00:00-04:00,4.760368900419553
2020-09-29 00:00:00-04:00,4.748719278149408
2020-09-30 00:00:00-04:00,4.76315796841486
2020-10-01 00:00:00-04:00,4.760697503090122
2020-10-02 00:00:00-04:00,4.772858318773935
2020-10-05 00:00:00-04:00,4.794128163446731
2020-10-06 00:00:00-04:00,4.783188546902353
2020-10-07 00:00:00-04:00,4.817828600990598
2020-10-08 00:00:00-04:00,4.863682295080436
2020-10-09 00:00:00-04:00,4.870253622375014
2020-10-12 00:00:00-04:00,4.871503707204546
2020-10-13 00:00:00-04:00,4.853107097485147
2020-10-14 00:00:00-04:00,4.8607145133122405
2020-10-15 00:00:00-04:00,4.876562692916824
2020-10-16 00:00:00-04:00,4.879629425237942
2020-10-19 00:00:00-04:00,4.858706299499856
2020-10-20 00:00:00-04:00,4.861011688150655
2020-10-21 00:00:00-04:00,4.856544884669497
2020-10-22 00:00:00-04:00,4.854079754152161
2020-10-23 00:00:00-04:00,4.858333929977078
2020-10-26 00:00:00-04:00,4.836194649513551
2020-10-27 00:00:00-04:00,4.80573456365382
2020-10-28 00:00:00-04:00,4.788473672233963
2020-10-29 00:00:00-04:00,4.811292559232221
2020-10-30 00:00:00-04:00,4.823859557251891
2020-11-02 00:00:00-05:00,4.865088529499323
2020-11-03 00:00:00-05:00,4.877439829044723
2020-11-04 00:00:00-05:00,4.847401040072545
2020-11-05 00:00:00-05:00,4.887617404321393
2020-11-06 00:00:00-05:00,4.891226983623049
2020-11-09 00:00:00-05:00,4.917291878080817
2020-11-10 00:00:00-05:00,4.923965766517469
2020-11-11 00:00:00-05:00,4.922774724080349
2020-11-12 00:00:00-05:00,4.903094012357875
2020-11-13 00:00:00-05:00,4.923965766517469
2020-11-16 00:00:00-05:00,4.9340670224957615
2020-11-17 00:00:00-05:00,4.9271114808239345
2020-11-18 00:00:00-05:00,4.923825534742072
2020-11-19 00:00:00-05:00,4.926762408406225
2020-11-20 00:00:00-05:00,4.9255048042666205
2020-11-23 00:00:00-05:00,4.937595789514444
2020-11-24 00:00:00-05:00,4.959119678533368
2020-11-25 00:00:00-05:00,4.9507019298374235
2020-11-27 00:00:00-05:00,4.958105219757913
2020-11-30 00:00:00-05:00,4.9512472235666465
2020-12-01 00:00:00-05:00,4.967064851367511
2020-12-02 00:00:00-05:00,4.9535611411249185
2020-12-03 00:00:00-05:00,4.9420752425732015
2020-12-04 00:00:00-05:00,4.9523365963033115
2020-12-07 00:00:00-05:00,4.938424293963717
2020-12-08 00:00:00-05:00,4.9382864033584255
2020-12-09 00:00:00-05:00,4.941800447580848
2020-12-10 00:00:00-05:00,4.927530184836669
2020-12-11 00:00:00-05:00,4.924735359772209
2020-12-14 00:00:00-05:00,4.916515973947435
2020-12-15 00:00:00-05:00,4.933026814413109
2020-12-16 00:00:00-05:00,4.924455646762805
2020-12-17 00:00:00-05:00,4.934205715712682
2020-12-18 00:00:00-05:00,4.9420752425732015
2020-12-21 00:00:00-05:00,4.94667191135433
2020-12-22 00:00:00-05:00,4.937043217616507
2020-12-23 00:00:00-05:00,4.931290652722076
2020-12-24 00:00:00-05:00,4.939114336065301
2020-12-28 00:00:00-05:00,4.926413214094411
2020-12-29 00:00:00-05:00,4.924525610068687
2020-12-30 00:00:00-05:00,4.926762408406225
2020-12-31 00:00:00-05:00,4.933720479918989
2021-01-04 00:00:00-05:00,4.91333647443943
2021-01-05 00:00:00-05:00,4.9345520902044955
2021-01-06 00:00:00-05:00,4.965856847606593
2021-01-07 00:00:00-05:00,4.978533815988277
2021-01-08 00:00:00-05:00,4.961617946529857
2021-01-11 00:00:00-05:00,4.969342391495327
2021-01-12 00:00:00-05:00,4.981512932245279
2021-01-13 00:00:00-05:00,4.986326821480138
2021-01-14 00:00:00-05:00,4.984615074347696
2021-01-15 00:00:00-05:00,4.959863018525823
2021-01-19 00:00:00-05:00,4.939389979315199
2021-01-20 00:00:00-05:00,4.936005992789848
2021-01-21 00:00:00-05:00,4.928924784059704
2021-01-22 00:00:00-05:00,4.888328913334081
2021-01-25 00:00:00-05:00,4.908299690060019
2021-01-26 00:00:00-05:00,4.911211215397049
2021-01-27 00:00:00-05:00,4.903665773457042
2021-01-28 00:00:00-05:00,4.8978610937059495
2021-01-29 00:00:00-05:00,4.865504968885119
2021-02-01 00:00:00-05:00,4.893828268193412
2021-02-02 00:00:00-05:00,4.907801490836983
2021-02-03 00:00:00-05:00,4.90337987715008
2021-02-04 00:00:00-05:00,4.898723166845926
2021-02-05 00:00:00-05:00,4.904808428937493
2021-02-08 00:00:00-05:00,4.905593014832893
2021-02-09 00:00:00-05:00,4.884475866441203
2021-02-10 00:00:00-05:00,4.889344296935419
2021-02-11 00:00:00-05:00,4.890068923833654
2021-02-12 00:00:00-05:00,4.893611933802719
2021-02-16 00:00:00-05:00,4.884913034904955
2021-02-17 00:00:00-05:00,4.879437602054258
2021-02-18 00:00:00-05:00,4.8811263298525445
2021-02-19 00:00:00-05:00,4.883910690998407
2021-02-22 00:00:00-05:00,4.867533863578908
2021-02-23 00:00:00-05:00,4.871394039300596
2021-02-24 00:00:00-05:00,4.885519262391439
2021-02-25 00:00:00-05:00,4.871394039300596
2021-02-26 00:00:00-05:00,4.87028218377031
2021-03-01 00:00:00-05:00,4.892507579293863
2021-03-02 00:00:00-05:00,4.913468767916333
2021-03-03 00:00:00-05:00,4.905265962210331
2021-03-04 00:00:00-05:00,4.892362636641555
2021-03-05 00:00:00-05:00,4.926455044175978
2021-03-08 00:00:00-05:00,4.950632910086892
2021-03-09 00:00:00-05:00,4.950427442820443
2021-03-10 00:00:00-05:00,4.966791737569922
2021-03-11 00:00:00-05:00,4.950427442820443
2021-03-12 00:00:00-05:00,4.945141890119809
2021-03-15 00:00:00-04:00,4.943420016557302
2021-03-16 00:00:00-04:00,4.941694955060366
2021-03-17 00:00:00-04:00,4.953776410300792
2021-03-18 00:00:00-04:00,4.975642512142955
2021-03-19 00:00:00-04:00,4.959627218076132
2021-03-22 00:00:00-04:00,4.963148266071678
2021-03-23 00:00:00-04:00,4.95996629081819
2021-03-24 00:00:00-04:00,4.964634388182241
2021-03-25 00:00:00-04:00,4.992456323541719
2021-03-26 00:00:00-04:00,5.008604730478676
2021-03-29 00:00:00-04:00,5.013115938710013
2021-03-30 00:00:00-04:00,4.995405879008716
2021-03-31 00:00:00-04:00,4.978708593549089
2021-04-01 00:00:00-04:00,4.989958933155199
2021-04-05 00:00:00-04:00,5.00043297532004
2021-04-06 00:00:00-04:00,5.000498128367036
2021-04-07 00:00:00-04:00,4.963351029792002
2021-04-08 00:00:00-04:00,4.9638916031967995
2021-04-09 00:00:00-04:00,4.980105400788084
2021-04-12 00:00:00-04:00,4.986200801469682
2021-04-13 00:00:00-04:00,4.984084650995505
2021-04-14 00:00:00-04:00,4.982760132330081
2021-04-15 00:00:00-04:00,5.003099238103774
2021-04-16 00:00:00-04:00,5.086787386491306
2021-04-19 00:00:00-04:00,5.094937528120842
2021-04-20 00:00:00-04:00,5.096240271803283
2021-04-21 00:00:00-04:00,5.122922479007073
2021-04-22 00:00:00-04:00,5.111274599350913
2021-04-23 00:00:00-04:00,5.129125364177752
2021-04-26 00:00:00-04:00,5.120384298559639
2021-04-27 00:00:00-04:00,5.115172259059361
2021-04-28 00:00:00-04:00,5.117028570950335
2021-04-29 00:00:00-04:00,5.120730797804352
2021-04-30 00:00:00-04:00,5.109407473341552
2021-05-03 00:00:00-04:00,5.119690848461828
2021-05-04 00:00:00-04:00,5.15232965186616
2021-05-05 00:00:00-04:00,5.153950680421956
2021-05-06 00:00:00-04:00,5.159798319061464
2021-05-07 00:00:00-04:00,5.159464045980034
2021-05-10 00:00:00-04:00,5.158237567417875
2021-05-11 00:00:00-04:00,5.156674376020247
2021-05-12 00:00:00-04:00,5.127537408000817
2021-05-13 00:00:00-04:00,5.151352731917887
2021-05-14 00:00:00-04:00,5.157288894465801
2021-05-17 00:00:00-04:00,5.162079241341593
2021-05-18 00:00:00-04:00,5.146397815590601
2021-05-19 00:00:00-04:00,5.14181524056183
2021-05-20 00:00:00-04:00,5.148202429139116
2021-05-21 00:00:00-04:00,5.153652800931181
2021-05-24 00:00:00-04:00,5.1599096017700425
2021-05-25 00:00:00-04:00,5.157288894465801
2021-05-26 00:00:00-04:00,5.155332688363546
2021-05-27 00:00:00-04:00,5.166680627431244
2021-05-28 00:00:00-04:00,5.160744615499419
2021-06-01 00:00:00-04:00,5.166459290642308
2021-06-02 00:00:00-04:00,5.164188435639541
2021-06-03 00:00:00-04:00,5.167786316326595
2021-06-04 00:00:00-04:00,5.175162769283256
2021-06-07 00:00:00-04:00,5.162190183106591
2021-06-08 00:00:00-04:00,5.15712135194908
2021-06-09 00:00:00-04:00,5.1461154448200945
2021-06-10 00:00:00-04:00,5.1476951275007075
2021-06-11 00:00:00-04:00,5.148484034051414
2021-06-14 00:00:00-04:00,5.136299517830228
2021-06-15 00:00:00-04:00,5.14181524056183
2021-06-16 00:00:00-04:00,5.132529244077006
2021-06-17 00:00:00-04:00,5.111943297885494
2021-06-18 00:00:00-04:00,5.094022388046306
2021-06-21 00:00:00-04:00,5.114743622285891
2021-06-22 00:00:00-04:00,5.113986070633377
2021-06-23 00:00:00-04:00,5.1033177902756615
2021-06-24 00:00:00-04:00,5.102315439514739
2021-06-25 00:00:00-04:00,5.088595004509604
2021-06-28 00:00:00-04:00,5.095924039186437
2021-06-29 00:00:00-04:00,5.096636215407826
2021-06-30 00:00:00-04:00,5.1037890719080625
2021-07-01 00:00:00-04:00,5.1050841374436535
2021-07-02 00:00:00-04:00,5.109017845978275
2021-07-06 00:00:00-04:00,5.099302344853775
2021-07-07 00:00:00-04:00,5.118581696862696
2021-07-08 00:00:00-04:00,5.099065672168943
2021-07-09 00:00:00-04:00,5.11340282073492
2021-07-12 00:00:00-04:00,5.117304005206825
2021-07-13 00:00:00-04:00,5.104789947398651
2021-07-14 00:00:00-04:00,5.105672258017546
2021-07-15 00:00:00-04:00,5.113811113029415
2021-07-16 00:00:00-04:00,5.106318735935369
2021-07-19 00:00:00-04:00,5.079825018493728
2021-07-20 00:00:00-04:00,5.035035987017948
2021-07-21 00:00:00-04:00,5.043079913379146
2021-07-22 00:00:00-04:00,5.047638580842947
2021-07-23 00:00:00-04:00,5.062603821278253
2021-07-26 00:00:00-04:00,5.0749262107298225
2021-07-27 00:00:00-04:00,5.076138087112706
2021-07-28 00:00:00-04:00,5.065239608975999
2021-07-29 00:00:00-04:00,5.062235324475876
2021-07-30 00:00:00-04:00,5.066279800557441
2021-08-02 00:00:00-04:00,5.064933554926893
2021-08-03 00:00:00-04:00,5.07910095414904
2021-08-04 00:00:00-04:00,5.068051649926725
2021-08-05 00:00:00-04:00,5.062787970492748
2021-08-06 00:00:00-04:00,5.0706123985673495
2021-08-09 00:00:00-04:00,5.07463751575028
2021-08-10 00:00:00-04:00,5.09309067262127
2021-08-11 00:00:00-04:00,5.109858945151903
2021-08-12 00:00:00-04:00,5.111033474987118
2021-08-13 00:00:00-04:00,5.107446920738799
2021-08-16 00:00:00-04:00,5.105147259460476
2021-08-17 00:00:00-04:00,5.088479259684468
2021-08-18 00:00:00-04:00,5.075914736362676
2021-08-19 00:00:00-04:00,5.055217106167148
2021-08-20 00:00:00-04:00,5.055092859412935
2021-08-23 00:00:00-04:00,5.062759679189458
2021-08-24 00:00:00-04:00,5.065957317308547
2021-08-25 00:00:00-04:00,5.069083548883562
2021-08-26 00:00:00-04:00,5.055279077830163
2021-08-27 00:00:00-04:00,5.059551686502686
2021-08-30 00:00:00-04:00,5.058748223165384
2021-08-31 00:00:00-04:00,5.0453007784832735
2021-09-01 00:00:00-04:00,5.033954914099862
2021-09-02 00:00:00-04:00,5.039518036834822
2021-09-03 00:00:00-04:00,5.020617652785846
2021-09-07 00:00:00-04:00,4.986241871770055
2021-09-08 00:00:00-04:00,4.9903558746859815
2021-09-09 00:00:00-04:00,5.013525806547578
2021-09-10 00:00:00-04:00,5.003577466795655
2021-09-13 00:00:00-04:00,5.0001735542161585
2021-09-14 00:00:00-04:00,4.985776448614442
2021-09-15 00:00:00-04:00,4.988301040865417
2021-09-16 00:00:00-04:00,4.982177650290433
2021-09-17 00:00:00-04:00,4.961605874012488
2021-09-20 00:00:00-04:00,4.958671244717887
2021-09-21 00:00:00-04:00,4.954218756594958
2021-09-22 00:00:00-04:00,4.951468819380136
2021-09-23 00:00:00-04:00,4.960105504251815
2021-09-24 00:00:00-04:00,4.974067057735389
2021-09-27 00:00:00-04:00,4.9712363342637085
2021-09-28 00:00:00-04:00,4.957166247516996
2021-09-29 00:00:00-04:00,4.9548363575748615
2021-09-30 00:00:00-04:00,4.935858011841632
2021-10-01 00:00:00-04:00,4.942826130755607
2021-10-04 00:00:00-04:00,4.942826130755607
2021-10-05 00:00:00-04:00,4.955522157711546
2021-10-06 00:00:00-04:00,4.961674033747738
2021-10-07 00:00:00-04:00,4.986773652783645
2021-10-08 00:00:00-04:00,4.988500120647348
2021-10-11 00:00:00-04:00,4.9959025629053455
2021-10-12 00:00:00-04:00,5.00207335445056
2021-10-13 00:00:00-04:00,5.014301964515568
2021-10-14 00:00:00-04:00,5.041092726473595
2021-10-15 00:00:00-04:00,5.049990490738028
2021-10-18 00:00:00-04:00,5.031733878885662
2021-10-19 00:00:00-04:00,5.041470279356323
2021-10-20 00:00:00-04:00,5.050801311792001
2021-10-21 00:00:00-04:00,5.0788890008667025
2021-10-22 00:00:00-04:00,5.058810073332695
2021-10-25 00:00:00-04:00,5.048554642512322
2021-10-26 00:00:00-04:00,5.059737076529349
2021-10-27 00:00:00-04:00,5.057572536689108
2021-10-28 00:00:00-04:00,5.06657101431718
2021-10-29 00:00:00-04:00,5.05167357381893
2021-11-01 00:00:00-04:00,5.042036390831107
2021-11-02 00:00:00-04:00,5.059860553950013
2021-11-03 00:00:00-04:00,5.0655273703925685
2021-11-04 00:00:00-04:00,5.068226251908124
2021-11-05 00:00:00-04:00,5.067245665535794
2021-11-08 00:00:00-05:00,5.063436905764128
2021-11-09 00:00:00-05:00,5.060776909320525
2021-11-10 00:00:00-05:00,5.056307421744664
2021-11-11 00:00:00-05:00,5.0486881259911
2021-11-12 00:00:00-05:00,5.06195318534927
2021-11-15 00:00:00-05:00,5.069902147135235
2021-11-16 00:00:00-05:00,5.081556751713466
2021-11-17 00:00:00-05:00,5.078275498754638
2021-11-18 00:00:00-05:00,5.066335991116577
2021-11-19 00:00:00-05:00,5.0569916527631955
2021-11-22 00:00:00-05:00,5.059785500864447
2021-11-23 00:00:00-05:00,5.054439263886833
2021-11-24 00:00:00-05:00,5.043975168013856
2021-11-26 00:00:00-05:00,5.023870180955495
2021-11-29 00:00:00-05:00,5.035117784733236
2021-11-30 00:00:00-05:00,5.014637487840095
2021-12-01 00:00:00-05:00,5.010151778784065
2021-12-02 00:00:00-05:00,5.045674388899786
2021-12-03 00:00:00-05:00,5.054189879811133
2021-12-06 00:00:00-05:00,5.079066375864466
2021-12-07 00:00:00-05:00,5.090254609868436
2021-12-08 00:00:00-05:00,5.081435545502082
2021-12-09 00:00:00-05:00,5.076752806313312
2021-12-10 00:00:00-05:00,5.07259911146759
2021-12-13 00:00:00-05:00,5.0691653908988705
2021-12-14 00:00:00-05:00,5.067013396881443
2021-12-15 00:00:00-05:00,5.087725555639819
2021-12-16 00:00:00-05:00,5.1083720041446465
2021-12-17 00:00:00-05:00,5.080039051210228
2021-12-20 00:00:00-05:00,5.0559962881608245
2021-12-21 00:00:00-05:00,5.076021081934426
2021-12-22 00:00:00-05:00,5.087001725043733
2021-12-23 00:00:00-05:00,5.094934536080511
2021-12-27 00:00:00-05:00,5.110849441696448
2021-12-28 00:00:00-05:00,5.119355485645111
2021-12-29 00:00:00-05:00,5.119472455743782
2021-12-30 00:00:00-05:00,5.118771251524857
